CBANK,FREQ,P3,P2,P1,P0
0,7634738594.10694,-0.0006,0.0032,0.001,0.9984
1,7641352250.81583,-0.0006,0.0032,0.001,0.9984
2,7647984352.30241,-0.0006,0.0032,0.001,0.9984
3,7654633307.03052,-0.0006,0.0032,0.001,0.9984
4,7661302400.93618,-0.0006,0.0033,0.001,0.9984
5,7667985626.93442,-0.0006,0.0033,0.001,0.9984
6,7674687487.80593,-0.0006,0.0033,0.001,0.9984
7,7681405750.77002,-0.0006,0.0033,0.001,0.9984
8,7688556396.15689,-0.0006,0.0033,0.001,0.9984
9,7695310838.76318,-0.0006,0.0033,0.001,0.9984
10,7702084860.23127,-0.0006,0.0033,0.001,0.9984
11,7708874871.05094,-0.0006,0.0033,0.001,0.9984
12,7715687437.41685,-0.0006,0.0033,0.001,0.9983
13,7722514238.16021,-0.0006,0.0033,0.001,0.9983
14,7729359740.18678,-0.0006,0.0034,0.001,0.9983
15,7736222525.35098,-0.0006,0.0034,0.001,0.9983
16,7744488338.42608,-0.0006,0.0034,0.001,0.9983
17,7751392807.85499,-0.0006,0.0034,0.001,0.9983
18,7758316055.71778,-0.0006,0.0034,0.001,0.9983
19,7765256641.46667,-0.0006,0.0034,0.001,0.9983
20,7772219641.56179,-0.0006,0.0034,0.001,0.9983
21,7779197066.81384,-0.0006,0.0034,0.001,0.9983
22,7786195519.42848,-0.0006,0.0034,0.001,0.9983
23,7793211349.16784,-0.0006,0.0034,0.001,0.9983
24,7800696517.54832,-0.0006,0.0034,0.001,0.9983
25,7807751109.13575,-0.0006,0.0035,0.001,0.9983
26,7814827407.36982,-0.0006,0.0035,0.001,0.9983
27,7821920509.6017,-0.0006,0.0035,0.001,0.9983
28,7829037036.60912,-0.0006,0.0035,0.001,0.9983
29,7836169231.87353,-0.0006,0.0035,0.001,0.9983
30,7843322073.42389,-0.0006,0.0035,0.001,0.9983
31,7850493162.18122,-0.0006,0.0035,0.001,0.9983
32,7859113148.07875,-0.0007,0.0035,0.0011,0.9983
33,7866328037.14925,-0.0007,0.0035,0.0011,0.9983
34,7873564002.51182,-0.0007,0.0035,0.0011,0.9983
35,7880819428.50552,-0.0007,0.0035,0.0011,0.9983
36,7888097625.35204,-0.0007,0.0035,0.0011,0.9983
37,7895392739.93027,-0.0007,0.0035,0.0011,0.9982
38,7902708645.50111,-0.0007,0.0035,0.0011,0.9982
39,7910044730.19832,-0.0007,0.0035,0.0011,0.9982
40,7917891067.09692,-0.0007,0.0036,0.0011,0.9982
41,7925269280.64394,-0.0007,0.0036,0.0011,0.9982
42,7932668666.77359,-0.0007,0.0036,0.0011,0.9982
43,7940088057.77731,-0.0007,0.0036,0.0011,0.9982
44,7947532622.94802,-0.0007,0.0036,0.0011,0.9982
45,7954993609.75612,-0.0007,0.0036,0.0011,0.9982
46,7962477010.21877,-0.0007,0.0036,0.0011,0.9982
47,7969980247.49177,-0.0007,0.0036,0.0011,0.9982
48,7978988705.27097,-0.0007,0.0036,0.0011,0.9982
49,7986538777.62509,-0.0007,0.0036,0.0011,0.9982
50,7994112442.81411,-0.0007,0.0036,0.0011,0.9982
51,8001706275.54009,-0.0007,0.0036,0.0011,0.9982
52,8009324745.31485,-0.0007,0.0037,0.0011,0.9982
53,8016961773.76693,-0.0007,0.0037,0.0011,0.9982
54,8024621532.30466,-0.0007,0.0037,0.0011,0.9982
55,8032302178.12202,-0.0007,0.0037,0.0011,0.9982
56,8040539902.89594,-0.0007,0.0037,0.0011,0.9982
57,8048266277.79547,-0.0007,0.0037,0.0011,0.9981
58,8056015888.94519,-0.0007,0.0037,0.0011,0.9981
59,8063787295.04753,-0.0007,0.0038,0.0011,0.9981
60,8071585153.74179,-0.0007,0.0038,0.0011,0.9981
61,8079400486.65826,-0.0007,0.0038,0.0011,0.9981
62,8087240753.30909,-0.0007,0.0038,0.0011,0.9981
63,8095102584.23524,-0.0007,0.0038,0.0011,0.9981
64,8104510059.1469,-0.0007,0.0038,0.0012,0.9981
65,8112422774.21088,-0.0007,0.0038,0.0012,0.9981
66,8120359336.25602,-0.0007,0.0038,0.0012,0.9981
67,8128318586.2886,-0.0008,0.0038,0.0012,0.9981
68,8136305004.50719,-0.0008,0.0038,0.0012,0.9981
69,8144310868.33033,-0.0008,0.0038,0.0012,0.9981
70,8152342660.70426,-0.0008,0.0038,0.0012,0.9981
71,8160394968.27574,-0.0008,0.0038,0.0012,0.9981
72,8169055951.46224,-0.0008,0.0039,0.0012,0.9981
73,8177159026.50154,-0.0008,0.0039,0.0012,0.9981
74,8185287185.35275,-0.0008,0.0039,0.0012,0.9981
75,8193438093.37777,-0.0008,0.0039,0.0012,0.9981
76,8201617746.37194,-0.0008,0.0039,0.0012,0.9981
77,8209818068.19202,-0.0008,0.0039,0.0012,0.9981
78,8218043984.45067,-0.0008,0.0039,0.0012,0.9981
79,8226294279.1418,-0.0008,0.004,0.0012,0.998
80,8236154551.12151,-0.0008,0.0039,0.0012,0.998
81,8244459287.9828,-0.0008,0.0039,0.0012,0.998
82,8252789516.59716,-0.0008,0.004,0.0012,0.998
83,8261144624.61764,-0.0008,0.004,0.0012,0.998
84,8269528398.99343,-0.0008,0.004,0.0012,0.998
85,8277934112.13838,-0.0008,0.004,0.0012,0.998
86,8286366261.82923,-0.0008,0.004,0.0012,0.998
87,8294823505.2378,-0.0008,0.004,0.0012,0.998
88,8303944238.85491,-0.0008,0.0041,0.0012,0.998
89,8312455619.02048,-0.0008,0.0041,0.0013,0.998
90,8320993556.99171,-0.0008,0.0041,0.0013,0.998
91,8329556709.05282,-0.0008,0.0041,0.0013,0.998
92,8338150364.51186,-0.0009,0.0041,0.0013,0.998
93,8346766097.60935,-0.0009,0.0041,0.0013,0.998
94,8355410992.81652,-0.0009,0.0041,0.0013,0.998
95,8364079722.54768,-0.0009,0.0041,0.0013,0.998
96,8374412609.74944,-0.0009,0.0041,0.0013,0.998
97,8383142136.45323,-0.0009,0.0041,0.0013,0.9979
98,8391900013.38303,-0.0009,0.0041,0.0013,0.9979
99,8400683982.92801,-0.0009,0.0041,0.0013,0.9979
100,8409498884.41337,-0.0009,0.0041,0.0013,0.9979
101,8418338444.40924,-0.0009,0.0042,0.0013,0.9979
102,8427206295.17598,-0.0009,0.0042,0.0013,0.9979
103,8436101310.02932,-0.0009,0.0042,0.0013,0.9979
104,8445723621.52574,-0.0009,0.0042,0.0013,0.9979
105,8454677262.31937,-0.0009,0.0042,0.0013,0.9979
106,8463660440.74912,-0.0009,0.0043,0.0013,0.9979
107,8472670978.23321,-0.0009,0.0043,0.0013,0.9979
108,8481713864.98303,-0.0009,0.0043,0.0013,0.9979
109,8490781662.36891,-0.0009,0.0043,0.0013,0.9979
110,8499880367.33858,-0.0009,0.0043,0.0013,0.9979
111,8509006633.82037,-0.0009,0.0043,0.0013,0.9979
112,8519860792.36573,-0.0009,0.0043,0.0014,0.9979
113,8529052315.58499,-0.0009,0.0043,0.0014,0.9979
114,8538274513.4262,-0.0009,0.0043,0.0014,0.9978
115,8547525730.91271,-0.0009,0.0043,0.0014,0.9978
116,8556810262.5785,-0.0009,0.0043,0.0014,0.9978
117,8566121171.37549,-0.0009,0.0043,0.0014,0.9978
118,8575464005.4277,-0.0009,0.0044,0.0014,0.9978
119,8584835670.51867,-0.0009,0.0044,0.0014,0.9978
120,8595004501.89762,-0.001,0.0044,0.0014,0.9978
121,8604440781.57146,-0.001,0.0044,0.0014,0.9978
122,8613909661.33647,-0.001,0.0045,0.0014,0.9978
123,8623406846.29588,-0.001,0.0045,0.0014,0.9978
124,8632939251.73527,-0.001,0.0045,0.0014,0.9978
125,8642501063.07767,-0.001,0.0045,0.0014,0.9978
126,8652093922.0416,-0.001,0.0045,0.0014,0.9978
127,8661720050.61111,-0.001,0.0045,0.0014,0.9978
128,8673113840.72035,-0.001,0.0045,0.0014,0.9978
129,8682809988.26779,-0.001,0.0045,0.0014,0.9978
130,8692538928.75157,-0.001,0.0045,0.0014,0.9977
131,8702299310.87479,-0.001,0.0045,0.0015,0.9977
132,8712096514.87831,-0.001,0.0045,0.0015,0.9977
133,8721923124.71566,-0.001,0.0045,0.0015,0.9977
134,8731783780.96245,-0.001,0.0045,0.0015,0.9977
135,8741676536.06758,-0.001,0.0046,0.0015,0.9977
136,8752447593.65083,-0.001,0.0046,0.0015,0.9977
137,8762410437.48027,-0.001,0.0046,0.0015,0.9977
138,8772408246.6242,-0.001,0.0047,0.0015,0.9977
139,8782439894.84904,-0.0011,0.0047,0.0015,0.9977
140,8792508347.15958,-0.0011,0.0047,0.0015,0.9977
141,8802608333.34001,-0.0011,0.0047,0.0015,0.9977
142,8812744109.45214,-0.0011,0.0047,0.0015,0.9977
143,8822913247.72613,-0.0011,0.0047,0.0015,0.9977
144,8834929054.75498,-0.0011,0.0047,0.0015,0.9976
145,8845176425.73394,-0.0011,0.0047,0.0015,0.9976
146,8855459757.58026,-0.0011,0.0047,0.0015,0.9976
147,8865779092.5701,-0.0011,0.0047,0.0015,0.9976
148,8876136777.98431,-0.0011,0.0047,0.0015,0.9976
149,8886527801.45114,-0.0011,0.0047,0.0015,0.9976
150,8896955597.24839,-0.0011,0.0048,0.0015,0.9976
151,8907419609.78895,-0.0011,0.0048,0.0016,0.9976
152,8918848115.13387,-0.0011,0.0048,0.0016,0.9976
153,8929389838.6264,-0.0011,0.0049,0.0016,0.9976
154,8939968501.36077,-0.0011,0.0049,0.0016,0.9976
155,8950584253.20043,-0.0011,0.0049,0.0016,0.9976
156,8961241283.34778,-0.0011,0.0049,0.0016,0.9976
157,8971930973.79793,-0.0011,0.0049,0.0016,0.9975
158,8982661780.33998,-0.0011,0.0049,0.0016,0.9975
159,8993429552.11847,-0.0011,0.0049,0.0016,0.9975
160,9006101222.0337,-0.0011,0.0049,0.0016,0.9975
161,9016954565.91956,-0.0011,0.0049,0.0016,0.9975
162,9027847703.18058,-0.0011,0.0049,0.0016,0.9975
163,9038779189.17004,-0.0011,0.0049,0.0016,0.9975
164,9049753637.95771,-0.0012,0.005,0.0016,0.9975
165,9060764439.17999,-0.0012,0.005,0.0016,0.9975
166,9071816500.40357,-0.0012,0.005,0.0016,0.9975
167,9082907950.44114,-0.0012,0.005,0.0016,0.9975
168,9095063198.25863,-0.0012,0.0051,0.0017,0.9975
169,9106240340.9983,-0.0012,0.0051,0.0017,0.9974
170,9117458515.42479,-0.0012,0.0051,0.0017,0.9974
171,9128717573.78788,-0.0012,0.0051,0.0017,0.9974
172,9140020182.12641,-0.0012,0.0051,0.0017,0.9974
173,9151362494.93847,-0.0012,0.0051,0.0017,0.9974
174,9162747889.84211,-0.0012,0.0052,0.0017,0.9974
175,9174174466.76071,-0.0012,0.0052,0.0017,0.9974
176,9187567321.95427,-0.0012,0.0051,0.0017,0.9974
177,9199088246.99427,-0.0012,0.0051,0.0017,0.9974
178,9210653318.96796,-0.0012,0.0052,0.0017,0.9974
179,9222259301.39599,-0.0012,0.0052,0.0017,0.9974
180,9233912587.58848,-0.0012,0.0052,0.0017,0.9974
181,9245607845.26098,-0.0012,0.0052,0.0017,0.9974
182,9257348054.60583,-0.0012,0.0052,0.0018,0.9974
183,9269132245.58377,-0.0013,0.0052,0.0018,0.9974
184,9282093086.61446,-0.0013,0.0053,0.0018,0.9973
185,9293971356.86286,-0.0013,0.0053,0.0018,0.9973
186,9305895317.55394,-0.0013,0.0053,0.0018,0.9973
187,9317864857.03296,-0.0013,0.0054,0.0018,0.9973
188,9329882387.63324,-0.0013,0.0054,0.0018,0.9973
189,9341944545.41282,-0.0013,0.0054,0.0018,0.9973
190,9354053736.04289,-0.0013,0.0054,0.0018,0.9973
191,9366208723.72591,-0.0013,0.0054,0.0018,0.9973
192,9380364221.42548,-0.0013,0.0054,0.0018,0.9973
193,9392623369.46341,-0.0013,0.0054,0.0018,0.9973
194,9404930275.98212,-0.0013,0.0054,0.0018,0.9973
195,9417284835.86321,-0.0013,0.0054,0.0019,0.9972
196,9429690057.05634,-0.0013,0.0054,0.0019,0.9972
197,9442142254.75658,-0.0013,0.0054,0.0019,0.9972
198,9454644653.8217,-0.0013,0.0055,0.0019,0.9972
199,9467194953.64984,-0.0013,0.0055,0.0019,0.9972
200,9481054750.61117,-0.0014,0.0056,0.0019,0.9972
201,9493710070.95815,-0.0014,0.0056,0.0019,0.9972
202,9506417164.38421,-0.0014,0.0056,0.0019,0.9972
203,9519174243.52526,-0.0014,0.0056,0.0019,0.9972
204,9531985408.79078,-0.0014,0.0056,0.0019,0.9972
205,9544845069.66704,-0.0014,0.0056,0.0019,0.9971
206,9557757045.33475,-0.0014,0.0057,0.0019,0.9971
207,9570720264.04972,-0.0014,0.0057,0.0019,0.9971
208,9585731872.94035,-0.0014,0.0056,0.002,0.9971
209,9598810114.46783,-0.0014,0.0056,0.002,0.9971
210,9611940950.8571,-0.0014,0.0056,0.002,0.9971
211,9625126134.81134,-0.0014,0.0057,0.002,0.9971
212,9638368185.76127,-0.0014,0.0057,0.002,0.9971
213,9651661986.0095,-0.0014,0.0057,0.002,0.9971
214,9665009966.82477,-0.0014,0.0057,0.002,0.9971
215,9678413690.77654,-0.0014,0.0057,0.002,0.9971
216,9693274915.20464,-0.0015,0.0058,0.002,0.997
217,9706795938.28594,-0.0015,0.0058,0.002,0.997
218,9720372478.44493,-0.0015,0.0059,0.002,0.997
219,9734006323.94847,-0.0015,0.0059,0.002,0.997
220,9747700562.41239,-0.0015,0.0059,0.002,0.997
221,9761449450.28673,-0.0015,0.0059,0.0021,0.997
222,9775254814.7946,-0.0015,0.0059,0.0021,0.997
223,9789120881.7121,-0.0015,0.0059,0.0021,0.997
224,9805041062.30171,-0.0015,0.0059,0.0021,0.997
225,9819031940.6031,-0.0015,0.0059,0.0021,0.997
226,9833082582.99723,-0.0015,0.0059,0.0021,0.997
227,9847193249.51387,-0.0015,0.0059,0.0021,0.9969
228,9861369549.63079,-0.0015,0.0059,0.0021,0.9969
229,9875601663.92742,-0.0015,0.006,0.0021,0.9969
230,9889895211.9496,-0.0015,0.006,0.0021,0.9969
231,9904250460.80006,-0.0015,0.006,0.0022,0.9969
232,9920235896.14352,-0.0016,0.0061,0.0022,0.9969
233,9934724186.55861,-0.0016,0.0061,0.0022,0.9969
234,9949274344.11038,-0.0016,0.0061,0.0022,0.9968
235,9963888203.47138,-0.0016,0.0062,0.0022,0.9968
236,9978571593.55394,-0.0016,0.0062,0.0022,0.9968
237,9993313940.67659,-0.0016,0.0062,0.0022,0.9968
238,10008121601.1624,-0.0016,0.0062,0.0022,0.9968
239,10022995295.4394,-0.0016,0.0062,0.0022,0.9968
240,10039914640.1942,-0.0016,0.0061,0.0023,0.9968
241,10054931271.1891,-0.0016,0.0061,0.0023,0.9968
242,10070011737.0912,-0.0016,0.0062,0.0023,0.9968
243,10085160188.0418,-0.0016,0.0062,0.0023,0.9968
244,10100382864.5455,-0.0016,0.0062,0.0023,0.9968
245,10115668023.2964,-0.0016,0.0062,0.0023,0.9968
246,10131022327.1159,-0.0016,0.0062,0.0023,0.9967
247,10146445452.4371,-0.0016,0.0063,0.0023,0.9967
248,10163700723.6374,-0.0017,0.0064,0.0023,0.9967
249,10179272147.8447,-0.0017,0.0064,0.0023,0.9967
250,10194916238.97,-0.0017,0.0064,0.0024,0.9967
251,10210631653.2325,-0.0017,0.0064,0.0024,0.9967
252,10226425947.4198,-0.0017,0.0065,0.0024,0.9966
253,10242285264.0975,-0.0017,0.0065,0.0024,0.9966
254,10258221637.1841,-0.0017,0.0065,0.0024,0.9966
255,10274229738.1248,-0.0017,0.0065,0.0024,0.9966
